Height,Velocity,Power
675622.0504274862,-39.6762476506934,0.0023148148148147696
675611.6314971716,-41.67572125840828,0.0023148148148147696
675600.7126969715,-43.67520080025467,0.0023148148148147696
675589.2940253313,-45.67468656096314,0.0023148148148147696
675577.375480625,-47.67417882526911,0.0023148148148147696
675564.9570611555,-49.67367787791308,0.0023148148148147696
675552.0387651545,-51.673184003640856,0.0023148148148147696
675538.6205907827,-53.67269748720376,0.0023148148148147696
675524.7025361294,-55.67221861335887,0.0023148148148147696
675510.2845992127,-57.67174766686922,0.0023148148148147696
675495.3667779795,-59.67128493250405,0.0023148148148147696
675479.9490703058,-61.670830695038994,0.0023148148148147696
675464.031473996,-63.670385239256326,0.0023148148148147696
675447.6139867835,-65.66994884994519,0.0023148148148147696
675430.6966063306,-67.6695218119018,0.0023148148148147696
675413.2793302281,-69.66910440992967,0.0023148148148147696
675395.3621559959,-71.66869692883986,0.0023148148148147696
675376.9450810825,-73.66829965345116,0.005208333333333315
675358.0303634267,-75.65887062321994,0.010995370370370294
675338.6225214576,-77.63136787632315,0.016782407407407385
675318.7260735342,-79.58579169374116,0.025462962962962965
675298.3477985071,-81.51310010851715,0.039930555555555525
675277.498996281,-83.39520890446957,0.05729166666666663
675256.1932272549,-85.22307610435757,0.07754629629629628
675234.4463123241,-86.98765972322289,0.10358796296296297
675212.2785934437,-88.67087552173167,0.13541666666666663
675189.7149336315,-90.25463924896924,0.1672453703703703
675166.7801958488,-91.73895113060505,0.2048611111111111
675143.5037641269,-93.10572688741084,0.22222222222222215
675119.899198519,-94.41826243175875,0.23958333333333331
675095.9800590313,-95.67655795070931,0.2424768518518518
675071.7486028187,-96.9258248504557,0.2424768518518518
675047.2048264301,-98.17510555442921,0.2424768518518518
675022.3487263699,-99.42440024069823,0.2424768518518518
674997.180299098,-100.67370908733875,0.2424768518518518
674971.6995410299,-101.92303227243441,0.2424768518518518
674945.9064485363,-103.1723699740766,0.2424768518518518
674919.8010179438,-104.4217223703646,0.2424768518518518
674893.3832455339,-105.67108963940564,0.2424768518518518
674866.6531275441,-106.92047195931498,0.2424768518518518
674839.6106601671,-108.16986950821607,0.2424768518518518
674812.255839551,-109.41928246424057,0.2424768518518518
674784.5886617996,-110.66871100552851,0.2424768518518518
674756.609122972,-111.91815531022836,0.2424768518518518
674728.3172190828,-113.16761555649711,0.2424768518518518
674699.7129461023,-114.41709192250039,0.2424768518518518
674670.7962999557,-115.66658458641258,0.2424768518518518
674641.567276524,-116.91609372641688,0.2424768518518518
674612.0258716438,-118.16561952070538,0.2424768518518518
674582.1720811069,-119.41516214747924,0.2424768518518518
674552.0059006606,-120.66472178494872,0.2424768518518518
674521.5273260078,-121.9142986113333,0.2424768518518518
674490.7363528067,-123.16389280486173,0.2424768518518518
674459.6329766707,-124.41350454377225,0.2424768518518518
674428.2171931692,-125.66313400631252,0.2424768518518518
674396.4889978265,-126.91278137073986,0.2424768518518518
674364.4483861226,-128.16244681532126,0.2424768518518518
674332.095353493,-129.41213051833353,0.2424768518518518
674299.4298953285,-130.66183265806333,0.2424768518518518
674266.4520069753,-131.91155341280736,0.2424768518518518
674233.1616837351,-133.16129296087237,0.2424768518518518
674199.558920865,-134.4110514805753,0.2424768518518518
674165.6437135774,-135.66082915024342,0.2424768518518518
674131.4160570403,-136.91062614821428,0.2424768518518518
674096.8759463772,-138.16044265283597,0.2424768518518518
674062.0233766666,-139.41027884246714,0.2424768518518518
674026.8583429427,-140.6601348954771,0.2424768518518518
673991.3808401951,-141.91001099024598,0.2424768518518518
673955.5908633688,-143.15990730516467,0.2424768518518518
673919.4884073641,-144.40982401863508,0.2424768518518518
673883.0734670368,-145.65976130907015,0.2424768518518518
673846.3460371981,-146.909719354894,0.2424768518518518
673809.3061126145,-148.15969833454204,0.2424768518518518
673771.9536880079,-149.40969842646092,0.2424768518518518
673734.2887580557,-150.6597198091088,0.2424768518518518
673696.3113173904,-151.90976266095538,0.2424768518518518
673658.0213606003,-153.15982716048197,0.2424768518518518
673619.4188822287,-154.40991348618167,0.2424768518518518
673580.5038767746,-155.66002181655935,0.2424768518518518
673541.276338692,-156.91015233013184,0.2424768518518518
673501.7362623907,-158.160305205428,0.2424768518518518
673461.8836422355,-159.41048062098878,0.2424768518518518
673421.7184725467,-160.66067875536743,0.2424768518518518
673381.2407475999,-161.91089978712944,0.2424768518518518
673340.4504616262,-163.16114389485273,0.2424768518518518
673299.3476088119,-164.41141125712775,0.2424768518518518
673257.9321832987,-165.6617020525576,0.2424768518518518
673216.2041791838,-166.91201645975798,0.2424768518518518
673174.1635905195,-168.1623546573575,0.2424768518518518
673131.8104113134,-169.41271682399758,0.2424768518518518
673089.1446355288,-170.66310313833276,0.2424768518518518
673046.166257084,-171.91351377903055,0.2424768518518518
673002.8752698528,-173.16394892477174,0.2424768518518518
672959.2716676643,-174.41440875425036,0.2424768518518518
672915.3554443028,-175.66489344617386,0.2424768518518518
672871.126593508,-176.91540317926317,0.2424768518518518
672826.5851089748,-178.1659381322528,0.2424768518518518
672781.7309843538,-179.41649848389093,0.2424768518518518
672736.5642132505,-180.66708441293954,0.2424768518518518
672691.084789226,-181.91769609817447,0.2424768518518518
672645.2927057963,-183.16833371838555,0.2424768518518518
672599.1879564332,-184.4189974523767,0.2424768518518518
672552.7705345635,-185.6696874789659,0.2424768518518518
672506.0404335692,-186.92040397698554,0.2424768518518518
672458.9976467879,-188.1711471252823,0.2424768518518518
672411.6421675122,-189.42191710271732,0.2424768518518518
672363.9739889902,-190.67271408816632,0.2424768518518518
672315.993104425,-191.92353826051965,0.2424768518518518
672267.6995069754,-193.17438979868245,0.2424768518518518
672219.093189755,-194.42526888157468,0.2424768518518518
672170.174145833,-195.67617568813128,0.2424768518518518
672120.9423682337,-196.92711039730222,0.2424768518518518
672071.3978499367,-198.1780731880526,0.2424768518518518
672021.5405838769,-199.4290642393628,0.2424768518518518
671971.3705629443,-200.6800837302285,0.2424768518518518
671920.8877799844,-201.93113183966082,0.2424768518518518
671870.0922277977,-203.18220874668648,0.2424768518518518
671818.9838991401,-204.43331463034778,0.2424768518518518
671767.5627867227,-205.68444966970276,0.2424768518518518
671715.8288832117,-206.93561404382527,0.2424768518518518
671663.7821812287,-208.18680793180513,0.2424768518518518
671611.4226733505,-209.43803151274815,0.2424768518518518
671558.7503521091,-210.6892849657763,0.2424768518518518
671505.7652099916,-211.94056847002773,0.2424768518518518
671452.4672394404,-213.19188220465696,0.2424768518518518
671398.8564328533,-214.44322634883488,0.2424768518518518
671344.9327825828,-215.6946010817489,0.2424768518518518
671290.6962809372,-216.9460065826031,0.2424768518518518
671236.1469201795,-218.19744303061822,0.2424768518518518
671181.2846925282,-219.44891060503178,0.2424768518518518
671126.1095901569,-220.7004094850983,0.2424768518518518
671070.6216051944,-221.95193985008922,0.2424768518518518
671014.8207297246,-223.20350187929313,0.2424768518518518
670958.7069557866,-224.4550957520158,0.2424768518518518
670902.2802753747,-225.70672164758037,0.2424768518518518
670845.5406804383,-226.95837974532725,0.2424768518518518
670788.4881628822,-228.21007022461447,0.2424768518518518
670731.122714566,-229.46179326481757,0.2424768518518518
670673.4443273046,-230.71354904532984,0.2424768518518518
670615.4529928683,-231.96533774556235,0.2424768518518518
670557.148702982,-233.21715954494402,0.2424768518518518
670498.5314493263,-234.46901462292183,0.2424768518518518
670439.6012235365,-235.7209031589608,0.2424768518518518
670380.3580172034,-236.97282533254412,0.2424768518518518
670320.8018218726,-238.2247813231733,0.2424768518518518
670260.932629045,-239.47677131036824,0.2424768518518518
670200.7504301766,-240.72879547366728,0.2424768518518518
670140.2552166785,-241.98085399262737,0.2424768518518518
670079.4469799168,-243.23294704682417,0.2424768518518518
670018.3257112128,-244.48507481585202,0.2424768518518518
669956.8914018429,-245.73723747932422,0.2424768518518518
669895.1440430387,-246.98943521687303,0.2424768518518518
669833.0836259867,-248.24166820814975,0.2424768518518518
669770.7101418285,-249.4939366328249,0.2424768518518518
669708.0235816608,-250.7462406705882,0.2424768518518518
669645.0239365356,-251.99858050114884,0.2424768518518518
669581.7111974595,-253.25095630423536,0.2424768518518518
669518.0853553946,-254.50336825959596,0.2424768518518518
669454.1464012578,-255.75581654699846,0.2424768518518518
669389.8943259213,-257.0083013462305,0.2424768518518518
669325.329120212,-258.26082283709945,0.2424768518518518
669260.4507749121,-259.5133811994328,0.2424768518518518
669195.2592807589,-260.765976613078,0.2424768518518518
669129.7546284444,-262.0186092579027,0.2424768518518518
669063.936808616,-263.2712793137948,0.2424768518518518
668997.8058118758,-264.5239869606626,0.2424768518518518
668931.3616287812,-265.77673237843476,0.2424768518518518
668864.6042498444,-267.02951574706054,0.2424768518518518
668797.5336655328,-268.2823372465099,0.2424768518518518
668730.1498662686,-269.5351970567735,0.2424768518518518
668662.4528424292,-270.78809535786286,0.2424768518518518
668594.4425843467,-272.0410323298105,0.2424768518518518
668526.1190823086,-273.2940081526699,0.2424768518518518
668457.4823265569,-274.5470230065158,0.2424768518518518
668388.5323072891,-275.80007707144415,0.2424768518518518
668319.2690146571,-277.05317052757215,0.2424768518518518
668249.6924387683,-278.3063035550386,0.2424768518518518
668179.8025696848,-279.5594763340037,0.2424768518518518
668109.5993974237,-280.81268904464946,0.2424768518518518
668039.0829119569,-282.0659418671795,0.2424768518518518
667968.2531032115,-283.31923498181936,0.2424768518518518
667897.1099610693,-284.5725685688165,0.2424768518518518
667825.6534753672,-285.82594280844046,0.2424768518518518
667753.883635897,-287.07935788098285,0.2424768518518518
667681.8004324053,-288.3328139667576,0.2424768518518518
667609.4038545938,-289.58631124610093,0.2424768518518518
667536.6938921189,-290.83984989937153,0.2424768518518518
667463.6705345921,-292.0934301069506,0.2424768518518518
667390.3337715798,-293.34705204924205,0.2424768518518518
667316.6835926031,-294.60071590667246,0.2424768518518518
667242.7199871382,-295.8544218596913,0.2424768518518518
667168.442944616,-297.10817008877086,0.2424768518518518
667093.8524544224,-298.3619607744067,0.2424768518518518
667018.9485058981,-299.6157940971174,0.2424768518518518
666943.7310883388,-300.86967023744467,0.2424768518518518
666868.2001909948,-302.1235893759537,0.2424768518518518
666792.3558030715,-303.3775516932331,0.2424768518518518
666716.197913729,-304.631557369895,0.2424768518518518
666639.7265120824,-305.8856065865752,0.2424768518518518
666562.9415872014,-307.1396995239332,0.2424768518518518
666485.8431281107,-308.39383636265234,0.2424768518518518
666408.4311237899,-309.6480172834399,0.2424768518518518
666330.7055631732,-310.90224246702724,0.2424768518518518
666252.6664351496,-312.15651209416984,0.2424768518518518
666174.3137285633,-313.4108263456474,0.2453703703703703
666095.649692774,-314.6561431568936,0.24826388888888878
666016.6765770972,-315.8924627074443,0.2511574074074073
665937.3966308032,-317.11978517556673,0.25694444444444436
665857.81436368,-318.3290684928895,0.25983796296296297
665777.9320249101,-319.5293550792206,0.26273148148148145
665697.7518636332,-320.72064510772867,0.26562499999999994
665617.2761289456,-321.90293875031375,0.26851851851851843
665536.5070699012,-323.07623617760686,0.2714120370370369
665455.4469355114,-324.2405375589701,0.2743055555555554
665374.0979747458,-325.39584306249645,0.2800925925925926
665292.4646970934,-326.5331106096393,0.2858796296296296
665210.5516120022,-327.65234036466006,0.2916666666666666
665128.3632288799,-328.75353248925734,0.30034722222222215
665045.9063176556,-329.82764489719636,0.30613425925925924
664963.1853876583,-330.8837199891266,0.3119212962962962
664880.2049481788,-331.9217579177633,0.3177083333333332
664796.9695084705,-332.9417588332578,0.3234953703703703
664713.4835777497,-333.94372288319715,0.3292824074074073
664629.7516651965,-334.9276502126039,0.33506944444444436
664545.7782799555,-335.89354096393555,0.34085648148148145
664461.5679311362,-336.84139527708453,0.34664351851851843
664377.1251278139,-337.7712132893777,0.3495370370370369
664292.4521184687,-338.69203738094666,0.3524305555555554
664207.5511515473,-339.6038676852801,0.3553240740740739
664122.4244754637,-340.50670433459425,0.3553240740740739
664037.0720780374,-341.40958970520313,0.3553240740740739
663951.4939470554,-342.3125239280715,0.3553240740740739
663865.6900702718,-343.2155071341854,0.3553240740740739
663779.6604354082,-344.11853945455186,0.3553240740740739
663693.4050301532,-345.0216210201995,0.3553240740740739
663606.9238421627,-345.9247519621781,0.3553240740740739
663520.2168590599,-346.82793241155895,0.3553240740740739
663433.284068435,-347.7311624994348,0.3553240740740739
663346.1254578457,-348.63444235691986,0.3553240740740739
663258.7410148169,-349.53777211515006,0.3553240740740739
663171.1307268406,-350.4411519052829,0.3553240740740739
663083.2945813759,-351.3445818584976,0.3553240740740739
662995.2325658494,-352.2480621059952,0.3553240740740739
662906.9446676547,-353.15159277899846,0.3553240740740739
662818.4308741525,-354.0551740087522,0.3553240740740739
662729.6911726708,-354.958805926523,0.3553240740740739
662640.7255505049,-355.86248866359955,0.3553240740740739
662551.5339949171,-356.7662223512926,0.3553240740740739
662462.1164931369,-357.67000712093494,0.3553240740740739
662372.4730323609,-358.57384310388164,0.3553240740740739
662282.603599753,-359.47773043151,0.3553240740740739
662192.5081824441,-360.38166923521953,0.3553240740740739
662102.1867675325,-361.28565964643224,0.3553240740740739
662011.6393420834,-362.1897017965924,0.3553240740740739
661920.865893129,-363.09379581716684,0.3553240740740739
661829.8664076691,-363.9979418396449,0.3553240740740739
661738.6408726702,-364.90213999553856,0.3553240740740739
661647.1892750661,-365.8063904163824,0.3553240740740739
661555.5116017577,-366.7106932337337,0.3553240740740739
661463.607839613,-367.6150485791726,0.3553240740740739
661371.4779754669,-368.51945658430196,0.3553240740740739
661279.1219961217,-369.4239173807476,0.3553240740740739
661186.5398883467,-370.32843110015824,0.3553240740740739
661093.7316388781,-371.23299787420564,0.3553240740740739
661000.6972344195,-372.1376178345846,0.3553240740740739
660907.4366616412,-373.0422911130131,0.3553240740740739
660813.949907181,-373.94701784123225,0.3553240740740739
660720.2369576432,-374.8517981510064,0.3553240740740739
660626.2977995997,-375.75663217412324,0.3553240740740739
660532.1324195891,-376.66152004239376,0.3553240740740739
660437.7408041172,-377.56646188765245,0.3553240740740739
660343.1229396567,-378.4714578417573,0.3553240740740739
660248.2788126476,-379.37650803658966,0.3553240740740739
660153.2084094966,-380.2816126040547,0.3553240740740739
660057.9117165776,-381.18677167608115,0.3553240740740739
659962.3887202315,-382.0919853846214,0.3553240740740739
659866.639406766,-382.99725386165176,0.3553240740740739
659770.6637624563,-383.9025772391722,0.3553240740740739
659674.461773544,-384.8079556492068,0.3553240740740739
659578.033426238,-385.7133892238034,0.3553240740740739
659481.3787067143,-386.618878095034,0.3553240740740739
659384.4976011155,-387.5244223949946,0.3553240740740739
659287.3900955515,-388.4300222558053,0.3553240740740739
659190.0561760991,-389.33567780961044,0.3553240740740739
659092.495828802,-390.2413891885787,0.3553240740740739
658994.7090396708,-391.1471565249029,0.3553240740740739
658896.6957946831,-392.0529799508004,0.3553240740740739
658798.4560797834,-392.9588595985129,0.3553240740740739
658699.9898808833,-393.8647956003066,0.3553240740740739
658601.2971838611,-394.7707880884723,0.3553240740740739
658502.3779745623,-395.67683719532533,0.3553240740740739
658403.2322387991,-396.5829430532058,0.3553240740740739
658303.8599623505,-397.4891057944784,0.3553240740740739
658204.2611309625,-398.39532555153284,0.3553240740740739
658104.4357303483,-399.3016024567835,0.3553240740740739
658004.3837461877,-400.2079366426697,0.3553240740740739
657904.1051641273,-401.1143282416558,0.3553240740740739
657803.5999697808,-402.02077738623115,0.3553240740740739
657702.8681487285,-402.9272842089102,0.3553240740740739
657601.9096865179,-403.8338488422325,0.3553240740740739
657500.7245686632,-404.7404714187629,0.3553240740740739
657399.3127806454,-405.6471520710915,0.3553240740740739
657297.6743079125,-406.55389093183373,0.3553240740740739
657195.809135879,-407.46068813363036,0.3553240740740739
657093.7172499268,-408.36754380914766,0.3553240740740739
656991.398635404,-409.27445809107746,0.3553240740740739
656888.8532776259,-410.1814311121371,0.3553240740740739
656786.0811618746,-411.08846300506957,0.3553240740740739
656683.0822733989,-411.9955539026435,0.3553240740740739
656579.8565974145,-412.9027039376534,0.3553240740740739
656476.4041191038,-413.80991324291955,0.3553240740740739
656372.724823616,-414.717181951288,0.3553240740740739
656268.8186960671,-415.6245101956309,0.3553240740740739
656164.6857215399,-416.53189810884624,0.3553240740740739
656060.3258850839,-417.4393458238582,0.3553240740740739
655955.7391717155,-418.34685347361705,0.3553240740740739
655850.9255664176,-419.25442119109914,0.3553240740740739
655745.8850541404,-420.1620491093072,0.3553240740740739
655640.6176198,-421.06973736127014,0.3553240740740739
655535.12324828,-421.9774860800433,0.3553240740740739
655429.4019244304,-422.8852953987084,0.3553240740740739
655323.4536330678,-423.79316545037375,0.3553240740740739
655217.2783589758,-424.70109636817403,0.3553240740740739
655110.8760869044,-425.6090882852707,0.3553240740740739
655004.2468015708,-426.51714133485166,0.3553240740740739
654897.3904876582,-427.42525565013176,0.3553240740740739
654790.3071298171,-428.3334313643526,0.3553240740740739
654682.9967126644,-429.2416686107824,0.3553240740740739
654575.4592207837,-430.1499675227167,0.3553240740740739
654467.6946387253,-431.05832823347754,0.3553240740740739
654359.7029510061,-431.9667508764144,0.3553240740740739
654251.4841421099,-432.8752355849035,0.3553240740740739
654143.0381964868,-433.78378249234856,0.3553240740740739
654034.3650985537,-434.6923917321802,0.3553240740740739
653925.4648326943,-435.6010634378565,0.3553240740740739
653816.3373832585,-436.5097977428628,0.3553240740740739
653706.9827345633,-437.4185947807119,0.3553240740740739
653597.4008708921,-438.327454684944,0.3553240740740739
653487.5917764949,-439.2363775891268,0.3553240740740739
653377.5554355881,-440.1453636268556,0.3553240740740739
653267.2918323552,-441.0544129317534,0.3553240740740739
653156.8009509458,-441.96352563747087,0.3553240740740739
653046.0827754764,-442.8727018776864,0.3553240740740739
652935.1372900299,-443.7819417861062,0.3553240740740739
652823.9644786558,-444.6912454964644,0.3553240740740739
652712.5643253702,-445.60061314252306,0.3553240740740739
652600.9368141558,-446.5100448580723,0.3553240740740739
652489.0819289616,-447.4195407769303,0.3553240740740739
652376.9996537033,-448.32910103294336,0.3553240740740739
652264.6899722633,-449.23872575998587,0.3553240740740739
652152.1528684903,-450.1484150919606,0.3553240740740739
652039.3883261996,-451.0581691627986,0.3553240740740739
651926.396329173,-451.9679881064593,0.3553240740740739
